x	        y_upper		    x	         y_lower		    x	        V_upper (m/s)	x	        V_lower (m/s)
0	       -0.000364615		0	        -0.000364615		0	        17.93097878		0	        17.93097878
2.47936E-05	0.001093819		9.91744E-05	-0.001822825		2.47936E-05	19.02866259		9.91744E-05	16.70059879
0.000198349	0.002551509		0.000322317	-0.003279944		0.000198349	19.97022784		0.000322317	15.36912489
0.000495872	0.004007636		0.000694221	-0.004734833		0.000495872	20.74319165		0.000694221	13.97311705
0.000917363	0.005461285		0.001190092	-0.006186993		0.000917363	21.34642827		0.001190092	12.54926293
0.001487616	0.00691171		0.001809932	-0.007635187		0.001487616	21.78875857		0.001809932	11.13112753
0.002181836	0.008357424		0.00255374	-0.00907867		    0.002181836	22.08574201		0.00255374	9.746507067
0.003000025	0.00979818		0.003446309	-0.010516451		0.003000025	22.25713369		0.003446309	8.416293721
0.003942181	0.011232737		0.004462847	-0.011947537		0.003942181	22.32375416		0.004462847	7.154648838
0.005033099	0.012660353		0.005628146	-0.013371185		0.005033099	22.30582883		0.005628146	5.969840869
0.006247986	0.014080034		0.006917413	-0.014786651		0.006247986	22.22206111		0.006917413	4.86538796
0.00758684	0.015490789		0.008330647	-0.016192696		0.00758684	22.08823216		0.008330647	3.841484088
0.009074455	0.016891875		0.00986785	-0.017588575		0.009074455	21.91757286		0.00986785	2.895686447
0.010686039	0.018282548		0.011529021	-0.018973793		0.010686039	21.72072743		0.011529021	2.02410474
0.01242159	0.019661815		0.013338953	-0.020346862		0.01242159	21.50604566		0.013338953	1.222292927
0.01428111	0.021028686		0.015272853	-0.021707287		0.01428111	21.28003759		0.015272853	0.484767986
0.016289391	0.022382664		0.017330722	-0.023054323		0.016289391	21.04827784		0.017330722	0.194935887
0.018396846	0.02372251		0.019512558	-0.024386978		0.018396846	20.81393764		0.019512558	0.818535277
0.020653063	0.025046488		0.021843156	-0.025703518		0.020653063	20.57984451		0.021843156	1.393197761
0.023033248	0.026358069		0.024272928	-0.027005182		0.023033248	20.34846432		0.024272928	1.923538406
0.025537401	0.027649815		0.026851462	-0.02828949		    0.025537401	20.12113317		0.026851462	2.412882094
0.028165522	0.028926685		0.029553963	-0.029556443		0.028165522	19.89849241		0.029553963	2.865484252
0.030942404	0.030183721		0.032355639	-0.03080604		    0.030942404	19.68146336		0.032355639	3.284204622
0.033818461	0.0314234		0.035306077	-0.032035802		0.033818461	19.47049049		0.035306077	3.672601258
0.03684328	0.032643245		0.038380482	-0.033245729		0.03684328	19.26551323		0.038380482	4.033112942
0.039967272	0.033840776		0.041578856	-0.034433342		0.039967272	19.06698718		0.041578856	4.368294862
0.043215233	0.035020951		0.044901198	-0.035601121		0.043215233	18.87458609		0.044901198	4.6803846
0.046611955	0.036176332		0.048347507	-0.036746585		0.046611955	18.68823159		0.048347507	4.971317733
0.050107852	0.037311879		0.051917784	-0.037869734		0.050107852	18.50783618		0.051917784	5.242899961
0.053727717	0.038422632		0.055587236	-0.038968091		0.053727717	18.33330303		0.055587236	5.496726298
0.057471549	0.039508591		0.05940545	-0.040044133		0.057471549	18.1642506		0.05940545	5.734282867
0.06133935	0.040572236		0.063322837	-0.041095381		0.06133935	18.00027778		0.063322837	5.956760865
0.065331118	0.041611088		0.067364193	-0.042119356		0.065331118	17.8415246		0.067364193	6.165468352
0.069446855	0.042622666		0.071529517	-0.043118538		0.069446855	17.68756625		0.071529517	6.361446376
0.073661766	0.043609451		0.075818808	-0.044090447		0.073661766	17.53824393		0.075818808	6.545532828
0.078000645	0.044566484		0.080207274	-0.045037562		0.078000645	17.39310208		0.080207274	6.718630813
0.082438698	0.045498723		0.084719708	-0.045954925		0.082438698	17.25195641		0.084719708	6.881569588
0.087025513	0.046403689		0.08935611	-0.046845015		0.087025513	17.11490578		0.08935611	7.035055082
0.091711502	0.047278903		0.094091687	-0.047705353		0.091711502	16.98146048		0.094091687	7.179693587
0.096496665	0.048124365		0.098926437	-0.048538418		0.096496665	16.85170615		0.098926437	7.316146527
0.101405797	0.048942553		0.103885156	-0.049339251		0.101405797	16.72513079		0.103885156	7.444864001
0.106414103	0.04972851		0.108967843	-0.050112811		0.106414103	16.60150596		0.108967843	7.566372975
0.111546376	0.050487194		0.114149704	-0.050854139		0.111546376	16.48120141		0.114149704	7.681145748
0.116777825	0.051213646		0.119430739	-0.051563236		0.116777825	16.36337374		0.119430739	7.789608463
0.122133241	0.051907867		0.124835742	-0.05224506		    0.122133241	16.24838454		0.124835742	7.892084642
0.127587831	0.052572335		0.13033992	-0.052892173		0.127587831	16.13567476		0.13033992	7.988992427
0.133141596	0.053204572		0.135943272	-0.053507054		0.133141596	16.02560451		0.135943272	8.080594038
0.138794535	0.053804577		0.141670592	-0.054092183		0.138794535	15.91760032		0.141670592	8.167190459
0.144546649	0.05437235		0.147472293	-0.0546426		    0.144546649	15.81202074		0.147472293	8.249121165
0.150422731	0.054905412		0.153373168	-0.055160786		0.150422731	15.70827807		0.153373168	8.326583933
0.156373193	0.055408722		0.159398012	-0.055646741		0.156373193	15.60640894		0.159398012	8.399821427
0.162447624	0.055877321		0.165497236	-0.056100464		0.162447624	15.50645027		0.165497236	8.469120379
0.168596435	0.056313689		0.171720427	-0.056519475		0.168596435	15.40843925		0.171720427	8.534576732
0.17484442	0.056715345		0.178018	-0.056906255		0.17484442	15.31176019		0.178018	8.596452757
0.181216374	0.057084769		0.184414747	-0.057258324		0.181216374	15.21676707		0.184414747	8.654940785
0.187662708	0.057421962		0.190910669	-0.057575682		0.187662708	15.12349166		0.190910669	8.710109069
0.194183423	0.057721965		0.197480971	-0.057860809		0.194183423	15.03130068		0.197480971	8.76224857
0.200803312	0.057989735		0.204150448	-0.058111224		0.200803312	14.94088351		0.204150448	8.811413054
0.207522376	0.058225275		0.210919099	-0.058329408		0.207522376	14.85159924		0.210919099	8.857764955
0.214340614	0.058423623		0.21776213	-0.05851288		    0.214340614	14.76346843		0.21776213	8.901460554
0.22120844	0.05859222		0.224704336	-0.058661642		0.22120844	14.67651185		0.224704336	8.942594702
0.228200233	0.058723626		0.231720923	-0.058778172		0.228200233	14.59075049		0.231720923	8.981258264
0.235241614	0.0588228		0.238811891	-0.058859991		0.235241614	14.50620557		0.238811891	9.017649361
0.242382168	0.058889743		0.245977239	-0.058909578		0.242382168	14.42255179		0.245977239	9.051740164
0.249597104	0.058921975		0.253241762	-0.058924454		0.249597104	14.34015342		0.253241762	9.083721704
0.256896338	0.058921975		0.260570749	-0.058909578		0.256896338	14.25868157		0.260570749	9.113616187
0.264264994	0.058887264		0.267979074	-0.058857511		0.264264994	14.17815221		0.267979074	9.141608174
0.27171051	0.058820321		0.275459301	-0.058775692		0.27171051	14.09833323		0.275459301	9.167715092
0.279225448	0.058721146		0.28301143	-0.058661642		0.279225448	14.01948644		0.28301143	9.191953002
0.286812288	0.05859222		0.29063298	-0.05851288		    0.286812288	13.94152072		0.29063298	9.214553706
0.294468549	0.058428582		0.298323953	-0.058334366		0.294468549	13.86437882		0.298323953	9.235420943
0.302191754	0.058232713		0.306079389	-0.058123621		0.302191754	13.78800203		0.306079389	9.254782547
0.309981901	0.058007091		0.313899288	-0.057883123		0.309981901	13.71243961		0.313899288	9.272540105
0.317834032	0.057751717		0.321781172	-0.057610393		0.317834032	13.6375951		0.321781172	9.288918129
0.325745667	0.057464111		0.329725039	-0.057310391		0.325745667	13.56348038		0.329725039	9.303816421
0.333719287	0.057146753		0.337725932	-0.056978157		0.333719287	13.49007042		0.337725932	9.317403072
0.341747452	0.056802122		0.345783849	-0.05661617		    0.341747452	13.41733953		0.345783849	9.32968381
0.349832643	0.05642526		0.353896313	-0.056226911		0.349832643	13.3452988		0.353896313	9.340770846
0.35797238	0.056021124		0.362060843	-0.055810379		0.35797238	13.2739218		0.362060843	9.350614953
0.366161704	0.055589716		0.370274961	-0.055364094		0.366161704	13.20314357		0.370274961	9.359326899
0.374400615	0.055131034		0.378538666	-0.054890536		0.374400615	13.13304991		0.378538666	9.366963222
0.382686634	0.05464508		0.386846999	-0.054392185		0.382686634	13.06353704		0.386846999	9.373526551
0.391017281	0.054134332		0.395197481	-0.05386904		    0.391017281	12.99465275		0.395197481	9.379072449
0.399390078	0.053596311		0.403592592	-0.053318622		0.399390078	12.9263684		0.403592592	9.383656004
0.407805023	0.053033496		0.412024893	-0.052743411		0.407805023	12.85865467		0.412024893	9.387331889
0.416257159	0.052448367		0.420496864	-0.052145886		0.416257159	12.79155972		0.420496864	9.390101171
0.424744006	0.051838445		0.429001066	-0.051526046		0.424744006	12.72497544		0.429001066	9.392017888
0.433268044	0.051206208		0.43753998	-0.050881412		0.433268044	12.6589889		0.43753998	9.393135792
0.441819354	0.050551657		0.446108646	-0.050216944		0.441819354	12.59356979		0.446108646	9.393455168
0.450402896	0.049877272		0.454704584	-0.049530161		0.450402896	12.52868708		0.454704584	9.39302933
0.459011231	0.049180572		0.463325317	-0.048826023		0.459011231	12.46434916		0.463325317	9.391911414
0.467644361	0.048466516		0.471970843	-0.04810205		    0.467644361	12.4005645		0.471970843	9.390101171
0.476299804	0.047732626		0.480635708	-0.047358243		0.476299804	12.33734169		0.480635708	9.387651463
0.48497533	0.046978901		0.489319168	-0.046597079		0.48497533	12.27460794		0.489319168	9.384561791
0.493666972	0.046210299		0.498018248	-0.04582104		    0.493666972	12.21241172		0.498018248	9.38088482
0.502373044	0.045426822		0.506730717	-0.045027645		0.502373044	12.15076129		0.506730717	9.37661986
0.511090918	0.044625989		0.515453599	-0.044221853		0.511090918	12.08966501		0.515453599	9.371872812
0.519818263	0.043812759		0.524184663	-0.043401185		0.519818263	12.02904818		0.524184663	9.366589561
0.528552302	0.042984653		0.532920933	-0.042565641		0.528552302	11.96900163		0.532920933	9.360822613
0.537289564	0.04214415		0.541660675	-0.04172018		    0.537289564	11.90945003		0.541660675	9.354624525
0.546029306	0.04129373		0.550400417	-0.040862321		0.546029306	11.85040084		0.550400417	9.347994437
0.554769048	0.040430913		0.559137679	-0.039997025		0.554769048	11.791904		0.559137679	9.340984959
0.563503831	0.039558178		0.567869982	-0.039119332		0.563503831	11.73392517		0.567869982	9.333541664
0.572231175	0.038678006		0.576592369	-0.03823668		    0.572231175	11.67647207		0.576592369	9.325770746
0.580951082	0.037790395		0.585307317	-0.03734411		    0.580951082	11.61955249		0.585307317	9.317671383
0.589658592	0.036895346		0.594007388	-0.036446582		0.589658592	11.5631743		0.594007388	9.309242719
0.598351226	0.035995339		0.602690105	-0.035544095		0.598351226	11.50730203		0.602690105	9.300591379
0.607026504	0.035090373		0.611355466	-0.03463665		    0.607026504	11.45194307		0.611355466	9.291609118
0.615679468	0.034180448		0.619998512	-0.033726725		0.615679468	11.39714877		0.619998512	9.282402706
0.624310118	0.033270523		0.628616765	-0.032814321		0.624310118	11.34288323		0.628616765	9.272971476
0.632915975	0.032355639		0.637207746	-0.031899437		0.632915975	11.2891098		0.637207746	9.263368718
0.641492078	0.031443235		0.645768973	-0.030984554		0.641492078	11.23592453		0.645768973	9.253593896
0.650035951	0.030528351		0.65429549	-0.030072149		0.650035951	11.1832464		0.65429549	9.243592375
0.658547591	0.029615947		0.662787296	-0.029159745		0.658547591	11.13112753		0.662787296	9.23352587
0.667019562	0.028703543		0.671239432	-0.02824982		    0.667019562	11.07953068		0.671239432	9.223285749
0.675449384	0.027796097		0.679649419	-0.027342375		0.675449384	11.02846317		0.679649419	9.212979974
0.683837057	0.026891131		0.688014777	-0.026442367		0.683837057	10.97797796		0.688014777	9.202553993
0.692177621	0.025993603		0.696330548	-0.025544839		0.692177621	10.92803734		0.696330548	9.192116187
0.700471078	0.025098555		0.704596732	-0.024654997		0.700471078	10.87864881		0.704596732	9.181557602
0.708709989	0.024212432		0.71280837	-0.023771849		0.708709989	10.82981994		0.71280837	9.17104138
0.716894354	0.023333251		0.720962983	-0.022896883		0.716894354	10.78155833		0.720962983	9.160458504
0.725019215	0.022462748		0.729058091	-0.022030843		0.725019215	10.73387162		0.729058091	9.149918032
0.733082092	0.02160117		0.737091216	-0.021174225		0.733082092	10.68672073		0.737091216	9.139365405
0.741082984	0.020750006		0.745057397	-0.020328267		0.741082984	10.64015977		0.745057397	9.12885535
0.749014455	0.019909503		0.752956636	-0.019493715		0.749014455	10.59414933		0.752956636	9.11844285
0.756874024	0.019080901		0.760766618	-0.018671311		0.756874024	10.5486966		0.760766618	9.108018445
0.764659212	0.018264696		0.768527013	-0.017861553		0.764659212	10.50385643		0.768527013	9.097746974
0.77237002	0.017461632		0.776188233	-0.01706543		    0.77237002	10.45960802		0.776188233	9.087573934
0.780006446	0.0166727		0.783799866	-0.01628344		    0.780006446	10.41592531		0.783799866	9.077499656
0.787543699	0.015898148		0.791287531	-0.015516327		0.787543699	10.37282989		0.791287531	9.067524469
0.79500657	0.01513872		0.798700816	-0.014764833		0.79500657	10.33032913		0.798700816	9.057759105
0.802395061	0.01439516		0.806039719	-0.014029703		0.802395061	10.28841582		0.806039719	9.048093722
0.809659584	0.013668212		0.813279449	-0.013310936		0.809659584	10.24710203		0.813279449	9.038639278
0.816849726	0.012958124		0.820420003	-0.012609526		0.816849726	10.20638526		0.820420003	9.029396436
0.823940694	0.012265639		0.827461384	-0.011925966		0.823940694	10.16627267		0.827461384	9.020310416
0.830932487	0.011591005		0.834378797	-0.011260506		0.830932487	10.12676651		0.834378797	9.011437177
0.837825106	0.010934718		0.841221828	-0.010613641		0.837825106	10.087864		0.841221828	9.002832887
0.844593757	0.010297523		0.847940892	-0.009986116		0.844593757	10.04957362		0.847940892	8.994442729
0.851263234	0.009679419		0.854560781	-0.009377681		0.851263234	10.01189542		0.854560781	8.986267301
0.857808742	0.009080901		0.861056703	-0.008789081		0.857808742	9.974831828		0.861056703	8.978418569
0.864255076	0.008502219		0.867428656	-0.008220316		0.864255076	9.938385181		0.867428656	8.970841655
0.870577443	0.007943619		0.873701436	-0.00767213		    0.870577443	9.902560275		0.873701436	8.963537248
0.876775841	0.00740535		0.879850247	-0.007144026		0.876775841	9.867355269		0.879850247	8.95656184
0.882875065	0.00688766		0.885850296	-0.006636501		0.882875065	9.83277682		0.885850296	8.949860334
0.888825527	0.006390549		0.891751171	-0.006149803		0.888825527	9.798821358		0.891751171	8.943489252
0.894627228	0.005914264		0.897503285	-0.005683931		0.894627228	9.765495379		0.897503285	8.937505245
0.900329755	0.005458558		0.903131431	-0.005238638		0.900329755	9.732800214		0.903131431	8.931797132
0.90588352	0.005023926		0.908610815	-0.004814172		0.90588352	9.700737085		0.908610815	8.926533482
0.911288523	0.004609873		0.913966231	-0.004410532		0.911288523	9.669307111		0.913966231	8.921546951
0.916569558	0.004216398		0.919172886	-0.004027471		0.916569558	9.638511296		0.919172886	8.917006224
0.921726626	0.003843503		0.924230779	-0.003664741		0.921726626	9.608350535		0.924230779	8.912855883
0.926710138	0.003490938		0.92913991	-0.003322342		0.926710138	9.578825607		0.92913991	8.909040352
0.931544889	0.003158704		0.933925074	-0.003000025		0.931544889	9.549942408		0.933925074	8.905728494
0.936255672	0.002846057		0.938536682	-0.002697295		0.936255672	9.521696277		0.938536682	8.902752383
0.940792899	0.002553244		0.942999529	-0.002414202		0.940792899	9.494087634		0.942999529	8.900224716
0.945181365	0.00227982		0.947313614	-0.002150175		0.945181365	9.467100929		0.947313614	8.898202066
0.94942107	0.002025215		0.951478938	-0.001904867		0.94942107	9.440815643		0.951478938	8.896572374
0.953487219	0.001789081		0.955470706	-0.001677832		0.953487219	9.415094264		0.955470706	8.895392066
0.957404607	0.001571021		0.959313713	-0.001468599		0.957404607	9.390047923		0.959313713	8.89466132
0.961173233	0.001370515		0.962983165	-0.001276672		0.961173233	9.365682036		0.962983165	8.894436463
0.964768304	0.001187018		0.966503855	-0.00110148		    0.964768304	9.341894883		0.966503855	8.89466132
0.96818982	0.001019984		0.969826197	-0.000942454		0.96818982	9.318798206		0.969826197	8.895392066
0.97143778	0.000868817		0.972999777	-0.000798974		0.97143778	9.296289582		0.972999777	8.896628575
0.97453698	0.000732849		0.975999802	-0.000670369		0.97453698	9.274481118		0.975999802	8.898370637
0.97743783	0.00061146		0.978851065	-0.000555996		0.97743783	9.253269692		0.978851065	8.90056178
0.980189919	0.000503905		0.981503979	-0.000455111		0.980189919	9.232713577		0.981503979	8.90331399
0.982768453	0.000409491		0.983983339	-0.00036697		    0.982768453	9.212762886		0.983983339	8.906626746
0.985173431	0.000327449		0.986289143	-0.000290804		0.985173431	9.193475948		0.986289143	8.910443311
0.987380061	0.000256986		0.988421392	-0.00022583		    0.987380061	9.174856947		0.988421392	8.914763037
0.989437929	0.000197278		0.990380086	-0.000171207		0.989437929	9.156800751		0.990380086	8.919641248
0.991297449	0.000147519		0.992165225	-0.000126098		0.991297449	9.139420113		0.992165225	8.925133052
0.992983413	0.000106841		0.993752014	-8.96363E-05		0.992983413	9.122664085		0.993752014	8.931125349
0.994495822	7.43733E-05		0.995190043	-6.09377E-05		0.994495822	9.106536114		0.995190043	8.937673075
0.995809883	4.92178E-05		0.996404929	-3.9097E-05		    0.995809883	9.091039545		0.996404929	8.944775011
0.996975182	3.04639E-05		0.997471053	-2.32028E-05		0.996975182	9.07612252		0.997471053	8.952485688
0.997917338	1.71941E-05		0.998338829	-1.23222E-05		0.997917338	9.06184308		0.998338829	8.960747737
0.998710733	8.4685E-06		0.99903305	-5.51484E-06		0.998710733	9.048204242		0.99903305	8.969615376
0.999305779	3.34218E-06		0.999528922	-1.83098E-06		0.999305779	9.035153568		0.999528922	8.979031128
0.99972727	8.61677E-07		0.999851238	-3.14085E-07		0.99972727	9.022749027		0.999851238	8.989048893
0.999950413	6.78477E-08		1	        -2.51308E-09	    0.999950413	9.01088231		1	        8.99966666
1	       -2.51308E-09	                                    1	        8.99966666			
